Î»,Raw_E
394.019,15.9586
394.106,4.21676
394.192,0.0
394.279,0.0
394.366,0.0
394.453,0.0
394.54,0.393829
394.627,0.0
394.714,0.0
394.801,0.0
394.888,61.068
394.975,70.8146
395.062,83.8458
395.149,58.0511
395.236,141.66
395.323,55.98
395.41,88.9247
395.497,92.9017
395.584,108.307
395.671,30.3673
395.758,85.0145
395.845,17.067
395.932,78.1162
396.019,72.3094
396.105,107.938
396.192,72.798
396.279,89.5955
396.366,67.9734
396.453,21.0936
396.54,23.5237
396.627,65.2141
396.714,117.641
396.801,81.5623
396.888,89.8879
396.975,75.7421
397.062,64.4437
397.149,113.087
397.235,51.9496
397.322,90.2709
397.409,66.177
397.496,60.1256
397.583,56.7458
397.67,85.465
397.757,54.3105
397.844,60.1748
397.931,58.9404
398.018,90.0391
398.105,98.2524
398.191,59.8029
398.278,114.344
398.365,60.983
398.452,80.6296
398.539,95.025
398.626,59.4849
398.713,69.1708
398.8,41.8941
398.887,38.5992
398.973,69.4854
399.06,81.1317
399.147,76.5735
399.234,73.8301
399.321,47.5841
399.408,68.4212
399.495,96.7334
399.582,96.6319
399.668,60.8591
399.755,93.9963
399.842,87.5245
399.929,74.4266
400.016,29.7488
400.103,46.9125
400.19,97.2751
400.276,48.4903
400.363,74.3732
400.45,100.001
400.537,143.18
400.624,87.3013
400.711,96.3633
400.798,142.087
400.884,124.976
400.971,60.2515
401.058,99.5881
401.145,62.2662
401.232,66.0356
401.319,58.2616
401.405,80.1641
401.492,68.229
401.579,99.1099
401.666,78.8886
401.753,154.628
401.84,78.8856
401.926,67.0585
402.013,159.906
402.1,78.9423
402.187,94.8757
402.274,83.017
402.36,54.2927
402.447,120.948
402.534,117.662
402.621,89.4267
402.708,137.237
402.795,69.9799
402.881,80.7407
402.968,67.1715
403.055,98.31
403.142,145.828
403.229,55.5914
403.315,52.7191
403.402,88.7608
403.489,74.8782
403.576,121.293
403.663,171.509
403.749,192.909
403.836,192.306
403.923,213.966
404.01,251.856
404.096,349.746
404.183,474.124
404.27,573.53
404.357,773.759
404.444,888.316
404.53,1077.94
404.617,1463.44
404.704,2154.21
404.791,2755.42
404.877,3381.59
404.964,3014.71
405.051,2358.39
405.138,1532.5
405.224,620.535
405.311,216.781
405.398,124.549
405.485,147.339
405.572,126.711
405.658,124.032
405.745,69.521
405.832,108.286
405.919,129.662
406.005,33.0088
406.092,73.6034
406.179,121.411
406.266,61.9909
406.352,91.2304
406.439,104.358
406.526,104.659
406.612,86.5103
406.699,84.9986
406.786,44.854
406.873,95.4232
406.959,115.568
407.046,63.8324
407.133,89.6275
407.22,85.3119
407.306,76.1701
407.393,113.664
407.48,150.562
407.566,142.081
407.653,181.8
407.74,275.132
407.827,234.535
407.913,372.27
408.0,385.235
408.087,396.524
408.173,319.131
408.26,260.56
408.347,162.99
408.434,73.4417
408.52,98.4921
408.607,97.6519
408.694,34.99
408.78,81.3751
408.867,69.3288
408.954,52.3543
409.04,52.5288
409.127,107.626
409.214,107.567
409.3,70.4359
409.387,48.2059
409.474,69.6986
409.56,95.4363
409.647,90.6505
409.734,57.1975
409.821,98.9839
409.907,63.2494
409.994,92.6311
410.081,110.398
410.167,84.7884
410.254,68.2413
410.341,46.8747
410.427,100.102
410.514,117.05
410.6,98.4762
410.687,116.235
410.774,120.302
410.86,78.4569
410.947,79.7301
411.034,112.26
411.12,79.3031
411.207,110.433
411.294,90.2076
411.38,138.035
411.467,156.862
411.554,119.495
411.64,136.241
411.727,134.894
411.814,80.853
411.9,82.2101
411.987,66.1146
412.073,99.6397
412.16,89.1178
412.247,58.0762
412.333,83.3817
412.42,57.5422
412.507,81.2156
412.593,103.08
412.68,73.8838
412.766,42.5803
412.853,96.6262
412.94,74.6981
413.026,78.0319
413.113,78.3767
413.2,94.2127
413.286,64.0697
413.373,29.2008
413.459,94.7387
413.546,42.15
413.633,80.6375
413.719,62.2262
413.806,69.6518
413.892,71.7217
413.979,114.267
414.066,50.0524
414.152,83.6979
414.239,59.0893
414.325,95.1464
414.412,92.8461
414.498,32.7972
414.585,80.2144
414.672,80.0628
414.758,70.5379
414.845,87.2357
414.931,67.3445
415.018,95.8082
415.104,25.0872
415.191,40.2798
415.278,62.3487
415.364,54.6191
415.451,84.802
415.537,37.1421
415.624,89.9925
415.71,86.0542
415.797,69.1782
415.884,80.2249
415.97,50.8323
416.057,68.1382
416.143,45.5627
416.23,85.425
416.316,80.7093
416.403,36.9025
416.489,86.8216
416.576,79.731
416.663,103.48
416.749,35.5465
416.836,153.144
416.922,75.5336
417.009,134.866
417.095,38.6591
417.182,108.529
417.268,62.8304
417.355,81.541
417.441,112.982
417.528,98.1677
417.614,60.2502
417.701,80.1105
417.787,70.7143
417.874,86.0156
417.96,75.4815
418.047,88.9019
418.133,111.85
418.22,69.8222
418.307,69.802
418.393,50.0514
418.48,58.6642
418.566,41.3009
418.653,95.7883
418.739,54.3999
418.826,75.0135
418.912,79.938
418.999,67.373
419.085,51.3884
419.172,70.3728
419.258,113.827
419.345,47.1845
419.431,71.5451
419.518,84.1486
419.604,50.573
419.69,60.8853
419.777,54.4869
419.863,95.9393
419.95,79.596
420.036,117.472
420.123,19.1907
420.209,69.3313
420.296,91.7394
420.382,62.5951
420.469,90.1194
420.555,60.4376
420.642,118.44
420.728,27.3424
420.815,95.681
420.901,83.1955
420.988,135.025
421.074,69.8847
421.16,76.9793
421.247,49.2532
421.333,88.6248
421.42,110.347
421.506,86.4112
421.593,65.781
421.679,54.0787
421.766,105.76
421.852,79.9549
421.939,82.6185
422.025,92.6969
422.111,98.6516
422.198,54.1132
422.284,67.311
422.371,110.01
422.457,102.587
422.544,54.8863
422.63,66.8888
422.716,49.8213
422.803,86.2878
422.889,84.26
422.976,67.9079
423.062,55.7351
423.149,84.3419
423.235,93.072
423.321,126.875
423.408,24.8883
423.494,89.3942
423.581,50.7975
423.667,84.4093
423.753,87.4679
423.84,38.2228
423.926,74.6782
424.013,78.0459
424.099,73.4481
424.185,33.2709
424.272,41.5918
424.358,56.6319
424.445,85.749
424.531,69.6804
424.617,84.7073
424.704,79.7863
424.79,17.5145
424.877,70.74
424.963,50.1778
425.049,67.574
425.136,37.1403
425.222,50.7953
425.308,49.0166
425.395,60.1425
425.481,64.3738
425.568,88.4742
425.654,65.1184
425.74,57.2767
425.827,72.0707
425.913,86.5293
425.999,41.0764
426.086,51.5275
426.172,77.4834
426.258,106.389
426.345,70.4026
426.431,78.8999
426.518,64.4187
426.604,108.822
426.69,65.9197
426.777,73.2073
426.863,89.2743
426.949,149.681
427.036,104.775
427.122,60.0787
427.208,106.968
427.295,89.4619
427.381,72.6881
427.467,62.0012
427.554,66.2978
427.64,75.6979
427.726,76.5072
427.813,89.7406
427.899,78.1911
427.985,98.4724
428.072,86.8852
428.158,70.8696
428.244,124.85
428.331,67.8791
428.417,44.2878
428.503,57.2339
428.59,59.7094
428.676,90.206
428.762,95.2533
428.849,159.179
428.935,81.0113
429.021,87.9162
429.107,138.361
429.194,118.806
429.28,126.385
429.366,118.444
429.453,95.4849
429.539,132.935
429.625,139.082
429.712,107.417
429.798,82.5754
429.884,89.6303
429.97,140.96
430.057,133.193
430.143,109.816
430.229,103.073
430.316,76.7625
430.402,125.973
430.488,78.1909
430.574,148.71
430.661,166.378
430.747,145.237
430.833,176.487
430.919,137.439
431.006,146.904
431.092,44.3319
431.178,98.8592
431.264,124.705
431.351,123.909
431.437,129.042
431.523,130.866
431.61,150.749
431.696,199.489
431.782,142.272
431.868,180.448
431.955,192.335
432.041,199.272
432.127,175.843
432.213,197.548
432.3,210.572
432.386,229.013
432.472,282.065
432.558,265.041
432.644,273.012
432.731,280.653
432.817,334.101
432.903,262.026
432.989,244.68
433.076,247.125
433.162,168.097
433.248,240.694
433.334,160.094
433.421,246.877
433.507,204.053
433.593,232.486
433.679,261.587
433.765,325.704
433.852,365.599
433.938,340.82
434.024,350.553
434.11,349.466
434.196,333.582
434.283,344.837
434.369,354.18
434.455,446.201
434.541,474.233
434.627,568.058
434.714,732.76
434.8,835.453
434.886,930.171
434.972,1070.91
435.058,1094.68
435.145,1193.83
435.231,1255.11
435.317,1656.78
435.403,2319.57
435.489,3826.95
435.576,5883.64
435.662,8446.39
435.748,11160.3
435.834,14519.2
435.92,16230.2
436.006,16222.9
436.093,16259.2
436.179,16260.8
436.265,12839.1
436.351,7899.26
436.437,2614.02
436.523,478.305
436.61,287.693
436.696,280.075
436.782,219.732
436.868,287.577
436.954,205.635
437.04,184.028
437.126,217.034
437.213,163.189
437.299,214.542
437.385,179.762
437.471,174.048
437.557,183.168
437.643,154.702
437.729,157.452
437.816,150.553
437.902,112.682
437.988,117.841
438.074,123.668
438.16,78.4711
438.246,94.7135
438.332,121.874
438.419,146.398
438.505,82.8027
438.591,164.933
438.677,85.5483
438.763,147.438
438.849,125.651
438.935,98.9513
439.021,124.909
439.107,34.0168
439.194,92.6324
439.28,100.389
439.366,105.593
439.452,66.0153
439.538,86.6661
439.624,73.9359
439.71,63.5571
439.796,100.287
439.882,77.5121
439.969,65.3475
440.055,43.6106
440.141,75.3841
440.227,104.088
440.313,60.5237
440.399,87.3402
440.485,77.7612
440.571,57.6432
440.657,77.0632
440.743,70.5673
440.829,73.6618
440.915,129.673
441.002,63.5507
441.088,105.902
441.174,56.7901
441.26,84.5049
441.346,120.352
441.432,157.459
441.518,144.271
441.604,159.696
441.69,186.976
441.776,197.755
441.862,230.79
441.948,181.518
442.034,215.318
442.12,220.41
442.206,225.573
442.292,303.189
442.379,281.503
442.465,260.383
442.551,320.827
442.637,350.898
442.723,455.955
442.809,391.187
442.895,337.378
442.981,216.878
443.067,181.379
443.153,184.437
443.239,184.814
443.325,159.251
443.411,115.003
443.497,148.087
443.583,112.342
443.669,99.1869
443.755,95.0211
443.841,81.0682
443.927,64.1614
444.013,104.796
444.099,26.4783
444.185,87.8
444.271,65.1546
444.357,69.3439
444.443,82.9028
444.529,62.14
444.615,65.5374
444.701,69.802
444.787,66.1238
444.873,101.116
444.959,86.5877
445.045,108.777
445.131,76.6272
445.217,88.0606
445.303,75.3811
445.389,50.146
445.475,78.5014
445.561,69.8983
445.647,53.0135
445.733,28.5314
445.819,50.7023
445.905,99.6047
445.991,86.5894
446.077,156.749
446.163,105.536
446.249,23.1104
446.335,90.5832
446.421,87.0062
446.507,55.416
446.593,48.6513
446.679,102.813
446.765,81.8071
446.851,55.3769
446.937,87.2759
447.023,66.5947
447.109,63.2831
447.195,51.9943
447.281,101.437
447.367,72.3547
447.452,68.4562
447.538,56.9179
447.624,81.9105
447.71,78.4258
447.796,47.6221
447.882,101.221
447.968,58.1286
448.054,95.3318
448.14,123.298
448.226,48.2611
448.312,43.5521
448.398,49.3178
448.484,109.542
448.57,75.6191
448.656,81.1367
448.742,101.84
448.827,94.7433
448.913,59.3275
448.999,60.1236
449.085,134.413
449.171,101.203
449.257,85.7883
449.343,70.7543
449.429,83.1159
449.515,77.8688
449.601,81.8411
449.687,63.6281
449.773,92.8776
449.858,54.6704
449.944,88.2814
450.03,62.5405
450.116,94.1025
450.202,72.8444
450.288,38.111
450.374,61.9102
450.46,96.4618
450.546,89.6375
450.632,34.3703
450.717,35.7052
450.803,104.181
450.889,128.778
450.975,71.1022
451.061,88.4353
451.147,83.0801
451.233,74.3808
451.319,52.8271
451.404,30.2292
451.49,83.7324
451.576,72.2597
451.662,89.3075
451.748,65.2526
451.834,79.3036
451.92,84.3911
452.006,121.183
452.091,78.3871
452.177,63.5143
452.263,65.5279
452.349,75.0543
452.435,171.04
452.521,42.4199
452.607,45.9557
452.692,58.7612
452.778,116.877
452.864,92.6199
452.95,50.5148
453.036,65.9211
453.122,114.309
453.207,84.2246
453.293,61.1661
453.379,106.493
453.465,100.468
453.551,65.4365
453.637,71.2864
453.722,54.9674
453.808,74.2372
453.894,104.435
453.98,55.5685
454.066,49.8191
454.152,56.9708
454.237,59.5763
454.323,41.3314
454.409,72.8584
454.495,70.1462
454.581,36.0719
454.666,77.8212
454.752,74.5999
454.838,124.246
454.924,97.2012
455.01,74.3882
455.096,73.788
455.181,59.1678
455.267,67.3951
455.353,64.3841
455.439,59.5388
455.525,35.1741
455.61,62.5633
455.696,56.8363
455.782,101.039
455.868,68.4749
455.953,60.2562
456.039,46.1247
456.125,57.4398
456.211,73.0973
456.297,107.014
456.382,60.034
456.468,77.1499
456.554,100.141
456.64,86.9903
456.725,105.149
456.811,60.5726
456.897,97.2941
456.983,128.279
457.069,108.659
457.154,83.3069
457.24,113.267
457.326,96.4857
457.412,58.1871
457.497,76.9795
457.583,112.892
457.669,133.621
457.755,93.1579
457.84,77.3364
457.926,77.8954
458.012,54.8931
458.098,94.433
458.183,104.728
458.269,106.214
458.355,65.2956
458.441,72.2523
458.526,57.1943
458.612,94.0204
458.698,59.7104
458.784,87.4989
458.869,66.3163
458.955,52.7099
459.041,87.5766
459.126,63.4444
459.212,96.3503
459.298,64.9833
459.384,98.271
459.469,83.1684
459.555,84.3004
459.641,56.2629
459.726,82.4761
459.812,84.1473
459.898,86.3219
459.984,115.936
460.069,114.094
460.155,33.1618
460.241,95.5084
460.326,59.1377
460.412,44.7397
460.498,59.3295
460.584,99.3823
460.669,84.25
460.755,41.0858
460.841,89.0835
460.926,85.1145
461.012,27.9905
461.098,58.6504
461.183,128.155
461.269,62.1394
461.355,129.149
461.44,76.1049
461.526,70.8838
461.612,75.8746
461.697,102.699
461.783,97.8405
461.869,55.4332
461.954,61.4622
462.04,95.2967
462.126,67.9377
462.211,101.051
462.297,99.8518
462.383,86.5169
462.468,64.0567
462.554,78.9015
462.64,92.7171
462.725,106.946
462.811,64.7395
462.897,78.7965
462.982,58.5002
463.068,91.28
463.154,71.2415
463.239,106.719
463.325,56.9551
463.411,59.886
463.496,72.1932
463.582,88.6286
463.668,130.814
463.753,162.854
463.839,103.206
463.924,80.0984
464.01,52.8237
464.096,112.428
464.181,42.1752
464.267,90.3865
464.353,53.729
464.438,101.783
464.524,39.896
464.609,68.01
464.695,88.3989
464.781,81.0893
464.866,168.321
464.952,188.96
465.038,139.887
465.123,99.6556
465.209,185.496
465.294,204.543
465.38,131.247
465.466,125.164
465.551,186.659
465.637,92.1694
465.722,73.745
465.808,64.9043
465.894,82.1647
465.979,53.4671
466.065,84.3553
466.15,83.3
466.236,47.3968
466.321,65.5155
466.407,93.9846
466.493,111.815
466.578,52.0011
466.664,97.8699
466.749,152.766
466.835,148.848
466.921,133.838
467.006,184.952
467.092,154.979
467.177,198.539
467.263,215.823
467.348,199.168
467.434,199.49
467.52,174.095
467.605,140.552
467.691,146.641
467.776,195.004
467.862,166.993
467.947,162.139
468.033,181.279
468.118,155.263
468.204,199.628
468.29,96.2774
468.375,107.14
468.461,110.938
468.546,114.53
468.632,74.2542
468.717,89.3779
468.803,95.7981
468.888,71.0302
468.974,97.9727
469.059,74.3923
469.145,33.6529
469.23,44.1027
469.316,77.5018
469.401,50.1047
469.487,64.7124
469.573,64.4168
469.658,125.38
469.744,89.261
469.829,110.033
469.915,79.6826
470.0,122.222
470.086,100.836
470.171,80.1277
470.257,108.8
470.342,92.3729
470.428,73.3161
470.513,40.1767
470.599,103.7
470.684,99.5664
470.77,131.819
470.855,86.1155
470.941,74.9256
471.026,66.7561
471.112,109.199
471.197,73.4103
471.283,86.9213
471.368,86.113
471.454,124.337
471.539,88.6494
471.625,74.8709
471.71,74.159
471.796,115.332
471.881,111.485
471.967,145.371
472.052,120.821
472.137,149.859
472.223,160.991
472.308,169.808
472.394,111.589
472.479,129.876
472.565,127.081
472.65,140.328
472.736,110.578
472.821,161.595
472.907,132.657
472.992,123.543
473.078,118.9
473.163,89.7071
473.248,119.75
473.334,147.037
473.419,101.379
473.505,111.126
473.59,133.522
473.676,141.398
473.761,206.95
473.847,110.79
473.932,171.175
474.017,135.266
474.103,124.326
474.188,107.599
474.274,175.089
474.359,133.851
474.445,120.543
474.53,163.084
474.616,95.7624
474.701,124.209
474.786,156.61
474.872,80.5877
474.957,133.977
475.043,74.8082
475.128,114.889
475.213,85.9633
475.299,101.969
475.384,93.3087
475.47,77.9979
475.555,159.508
475.64,101.924
475.726,76.2446
475.811,88.3589
475.897,78.8829
475.982,91.1767
476.067,68.1132
476.153,158.082
476.238,141.301
476.324,113.425
476.409,114.601
476.494,115.942
476.58,91.8931
476.665,75.7886
476.751,111.758
476.836,87.7225
476.921,131.949
477.007,116.509
477.092,86.8806
477.178,101.843
477.263,53.7227
477.348,77.7812
477.434,158.183
477.519,123.768
477.604,77.2356
477.69,86.6722
477.775,162.437
477.86,93.8674
477.946,175.569
478.031,123.874
478.117,127.506
478.202,75.7763
478.287,105.104
478.373,140.416
478.458,73.6694
478.543,150.919
478.629,132.141
478.714,146.388
478.799,148.947
478.885,143.807
478.97,192.84
479.055,180.503
479.141,152.47
479.226,137.99
479.311,173.975
479.397,185.787
479.482,167.533
479.567,170.634
479.653,166.411
479.738,182.818
479.823,191.598
479.909,219.147
479.994,207.353
480.079,232.948
480.165,205.981
480.25,238.746
480.335,199.471
480.421,210.601
480.506,194.971
480.591,189.178
480.677,305.907
480.762,237.753
480.847,231.634
480.932,239.966
481.018,241.509
481.103,298.922
481.188,217.474
481.274,305.212
481.359,249.357
481.444,318.631
481.53,273.409
481.615,286.214
481.7,261.907
481.785,280.127
481.871,394.487
481.956,333.372
482.041,402.008
482.127,355.69
482.212,363.58
482.297,370.544
482.382,412.565
482.468,379.959
482.553,438.134
482.638,434.634
482.723,470.908
482.809,465.045
482.894,490.3
482.979,503.913
483.064,582.136
483.15,582.962
483.235,540.461
483.32,598.766
483.406,616.794
483.491,642.203
483.576,667.587
483.661,676.182
483.747,732.292
483.832,746.682
483.917,793.828
484.002,790.196
484.087,814.745
484.173,796.981
484.258,830.484
484.343,847.645
484.428,866.181
484.514,883.163
484.599,942.69
484.684,967.81
484.769,1006.61
484.855,1058.93
484.94,994.361
485.025,1048.46
485.11,1111.53
485.195,1051.24
485.281,1092.15
485.366,1158.03
485.451,1119.69
485.536,1281.99
485.622,1267.66
485.707,1325.83
485.792,1386.66
485.877,1373.99
485.962,1396.45
486.048,1455.0
486.133,1515.67
486.218,1525.64
486.303,1644.82
486.388,1578.76
486.474,1633.55
486.559,1631.83
486.644,1656.39
486.729,1597.29
486.814,1668.74
486.9,1600.34
486.985,1641.28
487.07,1630.63
487.155,1653.8
487.24,1623.56
487.325,1626.9
487.411,1608.14
487.496,1559.83
487.581,1612.23
487.666,1579.91
487.751,1637.97
487.836,1555.12
487.922,1556.43
488.007,1537.48
488.092,1574.78
488.177,1472.63
488.262,1481.54
488.347,1447.8
488.433,1499.66
488.518,1459.15
488.603,1376.87
488.688,1407.71
488.773,1396.43
488.858,1460.78
488.944,1320.26
489.029,1308.54
489.114,1331.75
489.199,1253.23
489.284,1233.06
489.369,1203.74
489.454,1214.57
489.54,1166.57
489.625,1164.4
489.71,1124.76
489.795,1171.78
489.88,1090.56
489.965,1128.02
490.05,1159.09
490.135,1081.58
490.221,1047.81
490.306,973.99
490.391,1082.26
490.476,1089.22
490.561,1031.8
490.646,1036.89
490.731,1060.6
490.816,1058.87
490.901,1067.22
490.987,1044.94
491.072,1071.77
491.157,1059.51
491.242,1022.77
491.327,1041.14
491.412,1098.14
491.497,1074.39
491.582,1104.69
491.667,1154.77
491.752,1121.68
491.838,1103.28
491.923,1126.05
492.008,1096.53
492.093,1049.79
492.178,986.212
492.263,983.879
492.348,996.231
492.433,909.891
492.518,938.489
492.603,883.253
492.688,901.64
492.773,944.097
492.859,873.352
492.944,897.412
493.029,877.37
493.114,903.394
493.199,867.429
493.284,923.203
493.369,869.983
493.454,862.997
493.539,854.435
493.624,809.639
493.709,797.638
493.794,826.495
493.879,795.031
493.964,808.59
494.049,849.767
494.134,779.19
494.219,707.83
494.304,775.218
494.39,815.454
494.475,752.448
494.56,724.713
494.645,776.926
494.73,758.223
494.815,747.908
494.9,751.685
494.985,726.771
495.07,715.129
495.155,739.766
495.24,691.563
495.325,698.059
495.41,686.516
495.495,691.599
495.58,674.813
495.665,662.22
495.75,718.163
495.835,628.147
495.92,660.041
496.005,648.739
496.09,652.822
496.175,622.779
496.26,637.382
496.345,621.658
496.43,592.597
496.515,649.111
496.6,600.151
496.685,610.697
496.77,544.07
496.855,622.458
496.94,606.196
497.025,564.971
497.11,577.916
497.195,578.084
497.28,547.694
497.365,565.447
497.45,542.686
497.535,563.629
497.62,581.54
497.705,535.638
497.79,560.057
497.875,547.23
497.96,504.79
498.045,523.477
498.13,533.063
498.215,584.025
498.3,518.944
498.385,531.047
498.47,459.234
498.555,484.289
498.639,494.283
498.724,467.863
498.809,460.363
498.894,468.639
498.979,463.003
499.064,432.552
499.149,464.98
499.234,486.634
499.319,413.177
499.404,402.46
499.489,439.399
499.574,438.874
499.659,420.296
499.744,383.096
499.829,445.879
499.914,431.362
499.999,395.641
500.084,464.738
500.168,420.605
500.253,432.447
500.338,395.012
500.423,413.754
500.508,430.441
500.593,385.509
500.678,395.179
500.763,386.482
500.848,374.901
500.933,352.217
501.018,325.898
501.103,349.477
501.187,340.518
501.272,287.844
501.357,294.507
501.442,323.916
501.527,270.843
501.612,270.888
501.697,320.237
501.782,287.639
501.867,284.523
501.952,255.874
502.036,271.784
502.121,282.731
502.206,275.152
502.291,287.854
502.376,245.038
502.461,260.592
502.546,246.611
502.631,293.583
502.716,246.25
502.8,272.739
502.885,256.275
502.97,237.225
503.055,251.637
503.14,217.089
503.225,249.685
503.31,262.126
503.395,251.454
503.479,242.16
503.564,233.882
503.649,206.596
503.734,221.309
503.819,206.534
503.904,240.218
503.989,212.922
504.073,218.581
504.158,184.755
504.243,192.639
504.328,253.274
504.413,222.675
504.498,195.615
504.582,217.261
504.667,197.258
504.752,189.491
504.837,190.646
504.922,209.374
505.007,181.457
505.091,173.27
505.176,198.515
505.261,190.564
505.346,137.498
505.431,140.136
505.516,199.841
505.6,195.073
505.685,165.17
505.77,155.644
505.855,191.975
505.94,134.256
506.025,189.251
506.109,162.248
506.194,179.395
506.279,200.46
506.364,190.697
506.449,144.467
506.533,180.115
506.618,142.393
506.703,168.114
506.788,131.276
506.873,132.716
506.957,198.076
507.042,170.428
507.127,163.08
507.212,137.444
507.297,116.281
507.381,159.045
507.466,152.202
507.551,188.658
507.636,102.579
507.72,134.723
507.805,122.516
507.89,140.958
507.975,191.488
508.06,137.382
508.144,132.904
508.229,142.149
508.314,108.062
508.399,129.884
508.483,165.522
508.568,184.589
508.653,155.0
508.738,158.312
508.822,157.44
508.907,160.492
508.992,166.988
509.077,198.057
509.161,185.118
509.246,168.499
509.331,214.484
509.416,225.07
509.5,186.582
509.585,188.099
509.67,211.911
509.755,176.37
509.839,197.231
509.924,167.255
510.009,162.276
510.094,182.885
510.178,152.268
510.263,176.931
510.348,152.362
510.433,155.385
510.517,149.578
510.602,151.875
510.687,102.399
510.771,141.736
510.856,153.329
510.941,165.753
511.026,160.768
511.11,118.952
511.195,151.379
511.28,109.585
511.364,152.467
511.449,115.013
511.534,136.408
511.619,134.588
511.703,147.423
511.788,88.8438
511.873,126.939
511.957,183.321
512.042,77.1432
512.127,150.394
512.211,159.175
512.296,170.221
512.381,167.638
512.466,146.318
512.55,152.827
512.635,145.621
512.72,162.223
512.804,208.805
512.889,186.385
512.974,191.955
513.058,180.4
513.143,164.434
513.228,153.654
513.312,157.784
513.397,74.6798
513.482,117.812
513.566,194.114
513.651,117.179
513.736,125.585
513.82,144.185
513.905,168.792
513.99,201.277
514.074,139.656
514.159,171.551
514.244,154.156
514.328,159.846
514.413,126.171
514.498,172.388
514.582,182.183
514.667,124.738
514.752,163.849
514.836,183.436
514.921,119.161
515.005,85.9672
515.09,125.026
515.175,97.2478
515.259,50.6725
515.344,97.8811
515.429,105.309
515.513,85.0586
515.598,104.484
515.682,71.4802
515.767,59.451
515.852,85.5977
515.936,107.41
516.021,166.527
516.106,100.028
516.19,44.7563
516.275,103.928
516.359,120.135
516.444,101.993
516.529,135.196
516.613,162.842
516.698,155.612
516.782,178.493
516.867,185.205
516.952,160.956
517.036,176.405
517.121,113.436
517.205,119.316
517.29,99.7395
517.375,94.6468
517.459,94.6836
517.544,118.96
517.628,128.142
517.713,107.576
517.798,50.1162
517.882,110.846
517.967,88.2997
518.051,115.01
518.136,90.5621
518.22,97.1536
518.305,108.301
518.39,65.0843
518.474,85.6084
518.559,54.8115
518.643,132.719
518.728,94.2549
518.812,104.17
518.897,85.6123
518.982,193.741
519.066,161.344
519.151,104.333
519.235,116.592
519.32,73.7328
519.404,53.0294
519.489,164.745
519.573,134.834
519.658,112.177
519.743,72.9512
519.827,90.7576
519.912,80.4563
519.996,117.566
520.081,116.663
520.165,89.9327
520.25,63.9915
520.334,164.78
520.419,101.433
520.503,124.414
520.588,88.0684
520.672,112.986
520.757,104.314
520.841,182.804
520.926,94.2796
521.011,69.0564
521.095,111.816
521.18,114.413
521.264,60.0012
521.349,111.322
521.433,103.276
521.518,111.381
521.602,90.7039
521.687,46.3389
521.771,104.425
521.856,90.423
521.94,75.0873
522.025,104.061
522.109,70.7992
522.194,86.0665
522.278,73.7811
522.363,73.1215
522.447,82.9519
522.532,109.911
522.616,106.317
522.701,72.5027
522.785,101.905
522.87,78.8163
522.954,84.8458
523.039,108.516
523.123,92.3867
523.207,77.7188
523.292,101.656
523.376,77.5069
523.461,70.7277
523.545,101.302
523.63,156.09
523.714,123.047
523.799,113.626
523.883,117.459
523.968,74.5053
524.052,76.2706
524.137,71.1176
524.221,109.141
524.306,95.8058
524.39,94.2657
524.474,60.0945
524.559,106.604
524.643,67.8418
524.728,61.513
524.812,134.148
524.897,88.117
524.981,82.8126
525.066,153.903
525.15,52.8828
525.234,78.1647
525.319,132.608
525.403,168.069
525.488,113.487
525.572,132.474
525.657,106.144
525.741,70.7053
525.825,118.162
525.91,140.238
525.994,137.771
526.079,137.684
526.163,132.706
526.248,110.667
526.332,110.083
526.416,80.1697
526.501,138.656
526.585,66.4865
526.67,120.251
526.754,110.389
526.838,132.409
526.923,91.6943
527.007,118.306
527.092,145.418
527.176,106.833
527.26,118.342
527.345,182.713
527.429,150.028
527.514,168.41
527.598,194.191
527.682,135.706
527.767,167.793
527.851,153.895
527.936,157.946
528.02,209.779
528.104,200.216
528.189,164.144
528.273,183.04
528.358,212.267
528.442,134.054
528.526,75.5216
528.611,58.6841
528.695,139.133
528.779,139.951
528.864,125.198
528.948,137.436
529.032,98.3456
529.117,143.191
529.201,159.341
529.286,141.286
529.37,173.34
529.454,167.849
529.539,142.833
529.623,182.162
529.707,188.667
529.792,127.883
529.876,160.54
529.96,125.225
530.045,170.198
530.129,152.698
530.213,163.266
530.298,117.162
530.382,152.332
530.466,172.331
530.551,171.578
530.635,160.031
530.719,167.68
530.804,188.835
530.888,194.623
530.972,195.619
531.057,201.482
531.141,149.66
531.225,200.547
531.31,172.518
531.394,180.35
531.478,193.487
531.563,221.508
531.647,214.793
531.731,241.279
531.816,212.869
531.9,203.717
531.984,221.281
532.068,190.982
532.153,219.536
532.237,247.612
532.321,244.825
532.406,236.269
532.49,283.762
532.574,255.784
532.659,320.152
532.743,328.215
532.827,383.034
532.911,404.792
532.996,474.139
533.08,539.882
533.164,632.69
533.249,642.517
533.333,664.802
533.417,753.632
533.501,773.15
533.586,860.972
533.67,871.031
533.754,939.439
533.838,984.167
533.923,897.179
534.007,785.907
534.091,658.849
534.175,560.127
534.26,574.796
534.344,470.045
534.428,406.775
534.513,405.873
534.597,385.252
534.681,339.915
534.765,369.02
534.85,387.267
534.934,396.562
535.018,377.322
535.102,411.533
535.187,422.273
535.271,405.886
535.355,406.914
535.439,481.485
535.523,411.253
535.608,403.696
535.692,517.376
535.776,465.248
535.86,470.106
535.945,528.773
536.029,507.012
536.113,560.805
536.197,536.916
536.282,582.417
536.366,566.914
536.45,599.845
536.534,650.722
536.618,657.495
536.703,693.005
536.787,697.629
536.871,703.089
536.955,777.032
537.039,800.298
537.124,881.131
537.208,967.339
537.292,971.983
537.376,1039.46
537.46,1100.21
537.545,1225.57
537.629,1295.85
537.713,1418.45
537.797,1466.26
537.881,1589.28
537.966,1585.66
538.05,1652.13
538.134,1667.25
538.218,1784.3
538.302,1755.58
538.386,1769.34
538.471,1763.27
538.555,1723.63
538.639,1788.48
538.723,1823.75
538.807,1824.14
538.892,1832.98
538.976,1764.18
539.06,1787.17
539.144,1855.73
539.228,1882.22
539.312,1927.95
539.397,2003.96
539.481,2061.37
539.565,2182.34
539.649,2265.68
539.733,2459.2
539.817,2623.94
539.901,2767.36
539.986,2990.24
540.07,3173.4
540.154,3376.77
540.238,3562.89
540.322,3752.51
540.406,4012.05
540.49,4339.3
540.575,4546.53
540.659,4665.95
540.743,4943.39
540.827,5164.33
540.911,5397.01
540.995,5783.06
541.079,6126.73
541.163,6681.73
541.248,7230.75
541.332,7974.17
541.416,8711.1
541.5,9570.75
541.584,10533.1
541.668,11265.3
541.752,11647.8
541.836,11744.1
541.921,11861.8
542.005,11531.8
542.089,11267.5
542.173,10758.1
542.257,10436.8
542.341,10010.2
542.425,9427.34
542.509,9064.92
542.593,8742.01
542.677,8052.88
542.762,7780.58
542.846,7310.1
542.93,7188.43
543.014,7074.92
543.098,6847.26
543.182,6870.56
543.266,6692.51
543.35,6682.21
543.434,6648.76
543.518,6708.31
543.602,6841.48
543.686,6783.19
543.771,6771.64
543.855,6897.69
543.939,6897.38
544.023,7064.77
544.107,7189.73
544.191,7232.48
544.275,7165.86
544.359,7257.35
544.443,7185.31
544.527,7193.61
544.611,7257.2
544.695,7244.02
544.779,7335.13
544.863,7263.42
544.947,7337.18
545.031,7211.84
545.115,7273.41
545.2,7199.29
545.284,7220.15
545.368,7215.34
545.452,7308.31
545.536,7559.66
545.62,7817.64
545.704,8806.96
545.788,10540.5
545.872,12909.0
545.956,15395.4
546.04,16206.3
546.124,16229.1
546.208,16208.9
546.292,16215.6
546.376,16154.0
546.46,16226.7
546.544,16164.0
546.628,16241.1
546.712,16221.5
546.796,14803.2
546.88,7192.06
546.964,6627.14
547.048,6509.02
547.132,6464.52
547.216,6349.53
547.3,6239.99
547.384,6165.93
547.468,6130.72
547.552,5949.44
547.636,5901.87
547.72,5719.07
547.804,5654.85
547.888,5514.53
547.972,5444.99
548.056,5374.91
548.14,5340.62
548.224,5283.96
548.308,5181.01
548.392,5079.05
548.476,4893.71
548.56,4768.94
548.644,4749.9
548.728,4668.84
548.812,4648.11
548.896,4443.69
548.98,4274.13
549.064,4270.61
549.148,4145.06
549.232,4017.44
549.316,3863.41
549.4,3864.69
549.484,3664.11
549.568,3602.06
549.652,3498.41
549.736,3494.03
549.819,3382.74
549.903,3359.99
549.987,3315.05
550.071,3248.1
550.155,3176.3
550.239,3151.62
550.323,3044.85
550.407,3002.34
550.491,2964.26
550.575,2860.59
550.659,2821.2
550.743,2707.85
550.827,2699.53
550.911,2582.47
550.995,2539.26
551.079,2584.14
551.162,2555.92
551.246,2449.22
551.33,2354.59
551.414,2298.71
551.498,2227.96
551.582,2204.2
551.666,2107.37
551.75,2102.94
551.834,2107.37
551.918,2037.06
552.002,1974.87
552.086,1995.72
552.17,1949.85
552.253,1958.0
552.337,1933.19
552.421,1951.97
552.505,1992.54
552.589,1923.3
552.673,1861.27
552.757,1915.72
552.841,2071.8
552.925,1958.84
553.008,1802.3
553.092,1888.81
553.176,1728.0
553.26,1588.19
553.344,1549.17
553.428,1563.17
553.512,1516.59
553.596,1483.04
553.68,1437.41
553.763,1376.35
553.847,1358.48
553.931,1355.87
554.015,1327.22
554.099,1314.85
554.183,1224.56
554.267,1188.82
554.351,1128.04
554.434,1117.51
554.518,1052.17
554.602,1001.59
554.686,981.53
554.77,961.864
554.854,831.71
554.938,888.996
555.021,855.334
555.105,840.978
555.189,863.643
555.273,823.917
555.357,746.618
555.441,735.886
555.524,705.825
555.608,734.323
555.692,737.519
555.776,669.072
555.86,681.667
555.944,669.404
556.027,674.186
556.111,645.727
556.195,626.449
556.279,625.906
556.363,612.273
556.447,636.088
556.53,610.585
556.614,623.572
556.698,555.818
556.782,546.147
556.866,525.533
556.949,512.324
557.033,559.167
557.117,565.455
557.201,540.373
557.285,473.995
557.369,521.604
557.452,536.607
557.536,488.471
557.62,494.914
557.704,480.225
557.788,478.859
557.871,513.008
557.955,429.34
558.039,433.414
558.123,448.774
558.206,435.709
558.29,424.586
558.374,407.91
558.458,384.864
558.542,416.582
558.625,409.151
558.709,358.375
558.793,436.468
558.877,393.128
558.961,425.082
559.044,381.793
559.128,331.348
559.212,373.819
559.296,369.517
559.379,332.845
559.463,349.115
559.547,363.84
559.631,412.205
559.714,291.337
559.798,363.002
559.882,327.833
559.966,377.464
560.049,408.616
560.133,343.401
560.217,359.253
560.301,393.645
560.384,310.134
560.468,329.088
560.552,344.042
560.636,336.571
560.719,314.158
560.803,351.519
560.887,316.81
560.971,357.251
561.054,331.2
561.138,321.756
561.222,323.563
561.305,362.198
561.389,330.067
561.473,268.053
561.557,323.152
561.64,286.863
561.724,357.807
561.808,314.391
561.892,360.455
561.975,353.427
562.059,313.349
562.143,338.401
562.226,368.607
562.31,296.788
562.394,339.624
562.477,351.677
562.561,344.775
562.645,354.723
562.729,334.877
562.812,330.155
562.896,325.577
562.98,354.068
563.063,322.307
563.147,297.169
563.231,318.047
563.314,348.148
563.398,388.592
563.482,292.294
563.565,327.322
563.649,319.747
563.733,286.962
563.817,297.772
563.9,308.125
563.984,282.835
564.068,329.975
564.151,284.987
564.235,256.294
564.319,300.473
564.402,304.253
564.486,274.519
564.57,317.508
564.653,273.665
564.737,296.898
564.821,293.252
564.904,277.345
564.988,213.072
565.071,263.341
565.155,277.972
565.239,247.438
565.322,314.232
565.406,266.146
565.49,258.243
565.573,280.727
565.657,289.766
565.741,292.878
565.824,280.965
565.908,261.193
565.992,271.49
566.075,275.783
566.159,294.319
566.242,279.169
566.326,247.778
566.41,234.57
566.493,258.6
566.577,355.617
566.661,284.504
566.744,291.007
566.828,283.478
566.911,297.918
566.995,329.16
567.079,282.081
567.162,272.314
567.246,281.885
567.329,295.886
567.413,301.938
567.497,313.435
567.58,248.081
567.664,256.225
567.747,288.769
567.831,231.6
567.915,272.135
567.998,235.904
568.082,236.068
568.165,234.28
568.249,271.791
568.333,269.433
568.416,271.633
568.5,246.85
568.583,301.195
568.667,265.865
568.751,294.951
568.834,292.308
568.918,281.662
569.001,295.506
569.085,320.658
569.168,284.867
569.252,296.24
569.336,285.151
569.419,260.885
569.503,232.983
569.586,281.14
569.67,270.464
569.753,262.347
569.837,267.198
569.92,256.017
570.004,264.299
570.088,221.438
570.171,237.116
570.255,201.003
570.338,242.505
570.422,250.676
570.505,261.009
570.589,205.227
570.672,143.962
570.756,221.207
570.839,214.023
570.923,230.067
571.007,228.089
571.09,215.381
571.174,230.911
571.257,208.329
571.341,228.584
571.424,154.194
571.508,194.605
571.591,224.0
571.675,208.698
571.758,205.53
571.842,229.127
571.925,201.398
572.009,218.974
572.092,210.22
572.176,206.62
572.259,180.685
572.343,255.183
572.426,194.474
572.51,223.665
572.593,223.125
572.677,186.674
572.76,179.859
572.844,171.784
572.927,229.075
573.011,218.437
573.094,212.774
573.178,195.935
573.261,241.907
573.345,192.601
573.428,239.761
573.512,232.599
573.595,236.152
573.679,224.929
573.762,233.227
573.846,255.06
573.929,199.36
574.013,214.899
574.096,216.362
574.18,241.426
574.263,269.455
574.347,267.449
574.43,307.345
574.514,299.227
574.597,240.786
574.68,259.219
574.764,243.113
574.847,282.207
574.931,286.505
575.014,267.698
575.098,290.517
575.181,268.694
575.265,285.721
575.348,331.318
575.432,247.462
575.515,308.001
575.598,277.342
575.682,259.737
575.765,307.658
575.849,350.139
575.932,299.426
576.016,388.068
576.099,345.109
576.182,452.481
576.266,371.404
576.349,361.915
576.433,425.974
576.516,459.246
576.6,573.162
576.683,712.521
576.766,1088.2
576.85,1624.06
576.933,2220.47
577.017,2908.28
577.1,3819.0
577.184,4762.52
577.267,5954.46
577.35,5627.74
577.434,4712.56
577.517,3460.68
577.601,1607.81
577.684,718.356
577.767,608.05
577.851,588.892
577.934,604.351
578.018,583.173
578.101,547.973
578.184,619.56
578.268,604.902
578.351,610.721
578.435,555.916
578.518,556.429
578.601,586.884
578.685,669.975
578.768,757.447
578.851,940.712
578.935,1427.86
579.018,1967.09
579.102,2641.95
579.185,3301.28
579.268,4194.05
579.352,5178.36
579.435,5342.62
579.518,4670.18
579.602,3574.64
579.685,2177.86
579.768,885.243
579.852,705.856
579.935,759.011
580.019,821.509
580.102,891.544
580.185,945.668
580.269,1146.07
580.352,1362.12
580.435,1582.26
580.519,1892.64
580.602,2180.18
580.685,2445.42
580.769,2655.85
580.852,2573.47
580.935,2252.88
581.019,1861.27
581.102,1483.62
581.185,1267.89
581.269,1128.98
581.352,1100.16
581.435,1107.3
581.519,1155.74
581.602,1074.08
581.685,1244.16
581.769,1261.98
581.852,1359.4
581.935,1425.69
582.019,1513.66
582.102,1539.9
582.185,1666.09
582.269,1784.13
582.352,1896.12
582.435,1940.81
582.518,2080.5
582.602,2083.31
582.685,2106.54
582.768,2155.03
582.852,2189.42
582.935,2128.3
583.018,2206.03
583.102,2097.68
583.185,2142.53
583.268,2068.76
583.351,2094.71
583.435,2148.59
583.518,2116.44
583.601,2051.41
583.685,2050.99
583.768,2163.96
583.851,2039.5
583.934,2036.47
584.018,2021.78
584.101,2061.89
584.184,1990.16
584.267,1940.55
584.351,1959.15
584.434,1919.7
584.517,1879.69
584.601,1888.18
584.684,1879.47
584.767,1795.79
584.85,1824.05
584.934,1816.61
585.017,1811.65
585.1,1738.15
585.183,1808.51
585.267,1813.85
585.35,1780.22
585.433,1809.21
585.516,1865.5
585.6,1761.02
585.683,1741.25
585.766,1715.1
585.849,1730.16
585.933,1698.56
586.016,1693.21
586.099,1657.32
586.182,1713.79
586.266,1708.59
586.349,1677.0
586.432,1653.91
586.515,1617.0
586.598,1654.57
586.682,1664.09
586.765,1698.11
586.848,1789.47
586.931,1934.68
587.015,2083.55
587.098,2259.33
587.181,2660.15
587.264,3052.43
587.347,3504.34
587.431,4043.52
587.514,4521.53
587.597,5013.62
587.68,5236.34
587.763,5307.98
587.847,5052.99
587.93,4582.74
588.013,4017.37
588.096,3316.14
588.179,2770.46
588.263,2381.14
588.346,2109.38
588.429,1902.6
588.512,1735.82
588.595,1712.2
588.678,1506.09
588.762,1523.25
588.845,1409.85
588.928,1405.81
589.011,1337.64
589.094,1324.99
589.178,1320.61
589.261,1300.17
589.344,1222.14
589.427,1203.09
589.51,1187.35
589.593,1180.13
589.677,1110.91
589.76,1124.89
589.843,1111.98
589.926,1092.28
590.009,1106.41
590.092,1111.33
590.176,1105.69
590.259,1100.3
590.342,1090.2
590.425,1087.4
590.508,1107.61
590.591,1108.74
590.674,1247.02
590.758,1144.02
590.841,1300.18
590.924,1231.57
591.007,1281.01
591.09,1344.07
591.173,1276.19
591.256,1399.49
591.339,1456.48
591.423,1349.7
591.506,1384.32
591.589,1440.14
591.672,1453.86
591.755,1515.37
591.838,1449.43
591.921,1536.34
592.004,1547.93
592.088,1601.2
592.171,1691.39
592.254,1747.52
592.337,1802.23
592.42,1846.87
592.503,1958.62
592.586,1960.51
592.669,2173.99
592.752,2286.94
592.836,2353.82
592.919,2588.66
593.002,2762.27
593.085,3042.98
593.168,3187.64
593.251,3399.81
593.334,3538.06
593.417,3587.05
593.5,3731.59
593.583,3658.93
593.666,3697.72
593.75,3447.4
593.833,3322.14
593.916,3000.11
593.999,2818.37
594.082,2629.97
594.165,2369.66
594.248,2214.69
594.331,1982.25
594.414,1879.02
594.497,1759.02
594.58,1609.0
594.663,1580.4
594.746,1430.01
594.829,1416.88
594.913,1379.91
594.996,1303.09
595.079,1264.84
595.162,1249.3
595.245,1217.47
595.328,1144.7
595.411,1262.4
595.494,1135.95
595.577,1101.43
595.66,1096.14
595.743,1043.94
595.826,1086.83
595.909,1050.23
595.992,993.479
596.075,1128.81
596.158,1062.37
596.241,1066.99
596.324,1088.45
596.407,1056.34
596.49,1069.82
596.573,1031.15
596.656,1084.3
596.739,1082.03
596.822,1102.38
596.905,1040.92
596.988,1079.38
597.071,1012.27
597.154,1043.41
597.237,1008.77
597.32,998.272
597.404,989.139
597.487,976.096
597.57,1004.05
597.653,934.013
597.736,942.033
597.819,973.326
597.902,946.415
597.985,980.933
598.068,986.462
598.151,971.487
598.234,1059.65
598.316,1072.86
598.399,1119.38
598.482,1167.47
598.565,1199.81
598.648,1197.38
598.731,1266.4
598.814,1302.94
598.897,1386.0
598.98,1442.92
599.063,1516.07
599.146,1599.85
599.229,1691.41
599.312,1708.97
599.395,1775.29
599.478,1874.67
599.561,2020.08
599.644,2098.3
599.727,2068.58
599.81,2079.71
599.893,2132.54
599.976,2232.78
600.059,2176.54
600.142,2165.45
600.225,2107.34
600.308,1979.43
600.391,1857.73
600.474,1883.68
600.557,1826.88
600.64,1689.48
600.723,1555.39
600.805,1547.39
600.888,1430.08
600.971,1401.95
601.054,1336.54
601.137,1244.6
601.22,1166.54
601.303,1109.72
601.386,1140.01
601.469,1018.84
601.552,1052.57
601.635,977.884
601.718,899.325
601.801,931.522
601.884,880.972
601.966,855.386
602.049,884.696
602.132,806.831
602.215,778.22
602.298,739.075
602.381,735.368
602.464,728.15
602.547,668.773
602.63,730.352
602.713,648.571
602.796,594.646
602.878,696.96
602.961,693.387
603.044,679.497
603.127,667.596
603.21,640.449
603.293,588.027
603.376,701.573
603.459,647.827
603.542,625.281
603.624,631.04
603.707,638.366
603.79,669.839
603.873,641.683
603.956,715.507
604.039,696.442
604.122,682.646
604.205,732.187
604.287,730.464
604.37,743.68
604.453,737.267
604.536,765.379
604.619,742.74
604.702,746.747
604.785,780.577
604.868,733.975
604.95,793.284
605.033,796.439
605.116,813.273
605.199,830.168
605.282,809.924
605.365,821.744
605.448,825.274
605.53,894.349
605.613,831.604
605.696,869.397
605.779,859.805
605.862,848.357
605.945,928.573
606.027,923.432
606.11,970.785
606.193,904.935
606.276,986.362
606.359,1031.7
606.442,1035.33
606.524,1048.19
606.607,1042.65
606.69,1040.61
606.773,1093.35
606.856,1108.11
606.939,1160.8
607.021,1189.54
607.104,1186.65
607.187,1223.76
607.27,1235.0
607.353,1223.83
607.435,1277.25
607.518,1295.7
607.601,1316.23
607.684,1376.41
607.767,1373.93
607.849,1393.34
607.932,1506.03
608.015,1542.24
608.098,1580.02
608.181,1680.1
608.263,1663.08
608.346,1718.36
608.429,1780.61
608.512,1923.41
608.595,2000.34
608.677,1992.21
608.76,2139.6
608.843,2155.21
608.926,2253.87
609.008,2324.2
609.091,2420.03
609.174,2595.77
609.257,2747.08
609.34,2741.86
609.422,2939.16
609.505,3105.88
609.588,3179.86
609.671,3370.64
609.753,3563.25
609.836,3726.88
609.919,3968.15
610.002,4154.31
610.084,4495.52
610.167,4805.66
610.25,5168.45
610.333,5456.01
610.415,5841.31
610.498,6441.49
610.581,7129.51
610.664,7882.12
610.746,8798.46
610.829,9911.82
610.912,11255.2
610.995,12851.4
611.077,14899.8
611.16,16231.5
611.243,16207.8
611.326,16242.0
611.408,16220.6
611.491,16187.5
611.574,16164.2
611.656,16228.3
611.739,16195.9
611.822,16243.6
611.905,16206.8
611.987,16214.3
612.07,16225.3
612.153,16266.5
612.235,16171.8
612.318,16006.1
612.401,16231.9
612.484,16256.5
612.566,16223.1
612.649,16218.9
612.732,16194.0
612.814,16242.4
612.897,16289.2
612.98,16208.5
613.062,16219.0
613.145,16195.4
613.228,14567.2
613.311,9858.93
613.393,9229.04
613.476,9015.39
613.559,8958.09
613.641,8681.09
613.724,8416.53
613.807,8191.99
613.889,7878.7
613.972,7709.59
614.055,7410.58
614.137,7282.39
614.22,7188.05
614.303,7168.45
614.385,7018.9
614.468,7087.16
614.551,7095.79
614.633,6986.42
614.716,6959.17
614.799,7094.79
614.881,6935.0
614.964,6924.09
615.047,6810.04
615.129,6732.36
615.212,6572.3
615.295,6419.5
615.377,6190.0
615.46,6020.14
615.543,5678.91
615.625,5539.52
615.708,5212.79
615.791,4953.06
615.873,4757.99
615.956,4501.69
616.038,4298.79
616.121,4046.9
616.204,3781.15
616.286,3627.71
616.369,3422.01
616.452,3297.24
616.534,3117.25
616.617,3025.25
616.699,2931.12
616.782,2870.27
616.865,2770.48
616.947,2736.02
617.03,2673.67
617.113,2556.36
617.195,2597.77
617.278,2736.79
617.36,2582.0
617.443,2559.76
617.526,2549.72
617.608,2595.83
617.691,2571.62
617.773,2574.61
617.856,2567.67
617.939,2613.04
618.021,2648.47
618.104,2619.09
618.186,2660.35
618.269,2682.82
618.352,2718.63
618.434,2674.81
618.517,2648.22
618.599,2564.37
618.682,2607.62
618.765,2460.98
618.847,2377.28
618.93,2283.31
619.012,2169.24
619.095,2156.62
619.177,2099.21
619.26,1988.0
619.343,1914.82
619.425,1934.52
619.508,1887.67
619.59,1778.35
619.673,1687.82
619.755,1695.4
619.838,1681.79
619.92,1694.72
620.003,1723.1
620.086,1679.39
620.168,1652.77
620.251,1661.24
620.333,1656.14
620.416,1635.74
620.498,1625.92
620.581,1631.37
620.663,1621.37
620.746,1615.82
620.829,1677.76
620.911,1650.7
620.994,1735.82
621.076,1719.62
621.159,1663.52
621.241,1702.17
621.324,1757.19
621.406,1728.69
621.489,1717.59
621.571,1758.85
621.654,1739.64
621.736,1712.93
621.819,1666.43
621.901,1636.96
621.984,1662.29
622.066,1639.23
622.149,1601.47
622.231,1626.01
622.314,1574.71
622.396,1564.24
622.479,1564.72
622.561,1560.79
622.644,1569.09
622.726,1570.77
622.809,1531.09
622.891,1625.78
622.974,1546.2
623.056,1615.05
623.139,1578.14
623.221,1586.62
623.304,1649.63
623.386,1637.04
623.469,1678.98
623.551,1745.87
623.634,1721.55
623.716,1743.23
623.799,1732.96
623.881,1809.69
623.964,1791.6
624.046,1732.22
624.129,1740.62
624.211,1786.75
624.294,1778.65
624.376,1736.57
624.459,1759.28
624.541,1732.83
624.624,1777.15
624.706,1703.43
624.788,1725.24
624.871,1712.99
624.953,1755.08
625.036,1783.63
625.118,1746.67
625.201,1716.24
625.283,1738.87
625.366,1792.64
625.448,1756.12
625.531,1798.66
625.613,1752.04
625.695,1772.34
625.778,1780.35
625.86,1804.53
625.943,1826.56
626.025,1788.23
626.108,1823.96
626.19,1824.98
626.272,1861.7
626.355,1778.47
626.437,1811.76
626.52,1764.92
626.602,1746.93
626.685,1782.94
626.767,1780.35
626.849,1812.61
626.932,1819.29
627.014,1711.31
627.097,1807.01
627.179,1836.48
627.262,1753.2
627.344,1758.16
627.426,1753.26
627.509,1766.28
627.591,1770.28
627.674,1746.04
627.756,1733.1
627.838,1701.7
627.921,1700.29
628.003,1734.11
628.086,1713.24
628.168,1701.54
628.25,1681.76
628.333,1630.06
628.415,1631.17
628.497,1652.46
628.58,1596.24
628.662,1581.85
628.745,1634.14
628.827,1637.37
628.909,1640.35
628.992,1617.64
629.074,1611.23
629.157,1676.92
629.239,1571.28
629.321,1634.88
629.404,1611.06
629.486,1632.88
629.568,1568.03
629.651,1612.66
629.733,1593.09
629.815,1620.41
629.898,1673.88
629.98,1644.0
630.063,1652.54
630.145,1684.73
630.227,1742.63
630.31,1767.97
630.392,1802.74
630.474,1834.61
630.557,1873.4
630.639,1995.07
630.721,2107.1
630.804,2227.78
630.886,2330.44
630.968,2485.36
631.051,2703.62
631.133,2793.29
631.215,3022.4
631.298,3191.74
631.38,3436.62
631.462,3670.84
631.545,3826.76
631.627,3951.83
631.709,4030.99
631.792,3967.91
631.874,3946.81
631.956,3718.99
632.039,3586.4
632.121,3271.46
632.203,2959.55
632.285,2679.64
632.368,2360.73
632.45,2124.24
632.532,1927.96
632.615,1674.85
632.697,1599.8
632.779,1353.97
632.862,1274.14
632.944,1168.25
633.026,1045.03
633.108,1023.74
633.191,930.119
633.273,855.971
633.355,842.031
633.438,806.919
633.52,763.415
633.602,715.874
633.684,734.899
633.767,704.82
633.849,692.314
633.931,673.27
634.014,659.41
634.096,674.847
634.178,599.854
634.26,647.168
634.343,574.964
634.425,591.4
634.507,555.851
634.589,613.486
634.672,570.339
634.754,619.253
634.836,564.97
634.918,586.249
635.001,567.457
635.083,502.659
635.165,531.88
635.248,512.496
635.33,557.263
635.412,526.709
635.494,512.957
635.576,537.24
635.659,531.397
635.741,527.827
635.823,549.069
635.905,500.346
635.988,520.825
636.07,535.334
636.152,505.968
636.234,497.505
636.317,474.286
636.399,515.144
636.481,502.986
636.563,555.605
636.645,502.479
636.728,466.125
636.81,509.515
636.892,457.236
636.974,456.017
637.057,508.434
637.139,496.853
637.221,478.003
637.303,478.969
637.385,484.487
637.468,510.739
637.55,494.313
637.632,456.523
637.714,446.804
637.796,492.171
637.879,524.198
637.961,518.581
638.043,495.287
638.125,474.994
638.207,527.437
638.29,494.266
638.372,499.232
638.454,497.55
638.536,554.436
638.618,473.667
638.701,475.164
638.783,462.312
638.865,477.871
638.947,464.811
639.029,483.875
639.111,461.948
639.194,410.373
639.276,399.015
639.358,414.824
639.44,397.695
639.522,389.9
639.604,424.429
639.687,430.511
639.769,360.531
639.851,393.687
639.933,397.206
640.015,363.989
640.097,390.296
640.179,371.986
640.262,368.393
640.344,372.134
640.426,357.129
640.508,320.313
640.59,335.154
640.672,374.301
640.754,339.921
640.837,366.505
640.919,307.003
641.001,370.609
641.083,327.293
641.165,341.35
641.247,342.213
641.329,355.849
641.412,329.844
641.494,318.453
641.576,334.948
641.658,385.536
641.74,337.032
641.822,345.713
641.904,351.699
641.986,358.947
642.068,319.522
642.151,318.907
642.233,344.706
642.315,331.192
642.397,366.258
642.479,329.337
642.561,386.319
642.643,346.887
642.725,322.531
642.807,307.468
642.89,376.307
642.972,324.499
643.054,335.315
643.136,311.746
643.218,328.549
643.3,382.316
643.382,362.845
643.464,357.692
643.546,303.011
643.628,314.642
643.71,355.236
643.792,335.321
643.875,383.499
643.957,354.376
644.039,398.388
644.121,325.371
644.203,362.68
644.285,349.071
644.367,332.217
644.449,349.735
644.531,363.806
644.613,363.121
644.695,343.474
644.777,376.431
644.859,302.06
644.941,336.75
645.023,371.27
645.105,360.739
645.188,346.331
645.27,355.178
645.352,352.124
645.434,336.148
645.516,337.218
645.598,343.487
645.68,368.516
645.762,305.261
645.844,334.912
645.926,350.807
646.008,368.125
646.09,337.675
646.172,371.163
646.254,294.616
646.336,326.364
646.418,332.305
646.5,330.293
646.582,366.338
646.664,375.766
646.746,331.895
646.828,357.148
646.91,358.283
646.992,339.949
647.074,301.82
647.156,313.661
647.238,326.983
647.32,315.207
647.402,343.934
647.484,373.019
647.566,397.254
647.648,321.67
647.73,330.821
647.812,371.489
647.894,301.461
647.976,315.79
648.058,319.462
648.14,346.272
648.222,307.604
648.304,337.717
648.386,351.904
648.468,336.427
648.55,330.358
648.632,332.711
648.714,326.034
648.796,318.04
648.878,331.385
648.96,337.952
649.042,323.141
649.124,304.29
649.206,350.625
649.288,358.834
649.37,357.655
649.452,357.852
649.534,354.503
649.616,343.44
649.698,397.418
649.78,352.104
649.862,402.83
649.944,407.264
650.026,408.568
650.107,511.331
650.189,414.58
650.271,480.373
650.353,482.11
650.435,484.3
650.517,505.327
650.599,528.473
650.681,561.349
650.763,594.891
650.845,726.486
650.927,833.193
651.009,922.666
651.091,967.543
651.173,1069.08
651.255,1078.97
651.337,1176.22
651.418,1118.95
651.5,1121.01
651.582,1107.1
651.664,950.95
651.746,953.284
651.828,852.522
651.91,741.145
651.992,727.037
652.074,688.85
652.156,625.025
652.238,656.669
652.319,548.564
652.401,563.501
652.483,517.967
652.565,492.231
652.647,498.11
652.729,432.59
652.811,457.646
652.893,441.696
652.975,460.326
653.057,385.674
653.138,441.083
653.22,400.679
653.302,442.45
653.384,460.579
653.466,487.718
653.548,465.637
653.63,505.482
653.712,530.625
653.793,530.048
653.875,553.554
653.957,555.378
654.039,578.17
654.121,542.572
654.203,554.477
654.285,566.073
654.367,524.502
654.448,514.99
654.53,475.194
654.612,440.658
654.694,440.38
654.776,417.278
654.858,385.044
654.94,397.198
655.021,395.509
655.103,342.651
655.185,378.302
655.267,327.273
655.349,375.143
655.431,354.56
655.512,346.368
655.594,335.74
655.676,340.041
655.758,391.818
655.84,389.231
655.922,382.755
656.004,356.304
656.085,374.181
656.167,353.898
656.249,352.175
656.331,339.96
656.413,336.977
656.494,382.009
656.576,330.095
656.658,341.973
656.74,351.803
656.822,337.856
656.904,338.47
656.985,333.685
657.067,334.868
657.149,333.737
657.231,358.783
657.313,379.28
657.394,383.906
657.476,313.034
657.558,324.176
657.64,324.629
657.722,329.038
657.803,395.78
657.885,382.608
657.967,324.669
658.049,352.957
658.131,370.536
658.212,411.171
658.294,410.795
658.376,394.085
658.458,424.892
658.539,437.314
658.621,391.513
658.703,434.304
658.785,399.074
658.867,431.08
658.948,389.848
659.03,374.665
659.112,374.077
659.194,389.028
659.275,498.002
659.357,351.65
659.439,331.038
659.521,390.191
659.602,392.366
659.684,330.991
659.766,304.953
659.848,300.332
659.929,318.814
660.011,267.208
660.093,284.824
660.175,287.991
660.256,346.065
660.338,227.091
660.42,335.818
660.502,274.332
660.583,272.957
660.665,395.321
660.747,246.021
660.829,274.049
660.91,317.424
660.992,280.943
661.074,282.552
661.156,261.196
661.237,246.127
661.319,270.903
661.401,280.258
661.482,249.318
661.564,314.849
661.646,298.12
661.728,253.631
661.809,248.308
661.891,253.756
661.973,267.044
662.054,284.812
662.136,269.486
662.218,319.408
662.299,323.936
662.381,342.042
662.463,308.923
662.545,347.557
662.626,328.483
662.708,342.646
662.79,400.857
662.871,392.583
662.953,415.912
663.035,455.296
663.116,540.26
663.198,548.216
663.28,620.259
663.361,613.78
663.443,647.335
663.525,662.591
663.607,715.233
663.688,709.132
663.77,670.057
663.852,650.949
663.933,563.831
664.015,497.819
664.097,504.552
664.178,514.296
664.26,416.758
664.342,406.614
664.423,368.459
664.505,417.027
664.587,371.231
664.668,329.753
664.75,367.638
664.831,360.395
664.913,368.292
664.995,364.078
665.076,290.805
665.158,298.1
665.24,352.093
665.321,311.893
665.403,306.084
665.485,319.889
665.566,274.923
665.648,285.375
665.73,273.183
665.811,265.481
665.893,325.912
665.974,295.74
666.056,292.742
666.138,293.686
666.219,261.422
666.301,269.103
666.383,290.26
666.464,276.338
666.546,246.964
666.627,282.422
666.709,249.739
666.791,246.742
666.872,295.256
666.954,300.358
667.035,264.443
667.117,281.121
667.199,257.698
667.28,236.215
667.362,193.646
667.443,249.954
667.525,326.203
667.607,272.848
667.688,245.343
667.77,275.975
667.851,259.272
667.933,267.421
668.015,284.925
668.096,284.14
668.178,275.4
668.259,292.016
668.341,290.635
668.423,261.069
668.504,284.869
668.586,280.833
668.667,278.464
668.749,234.29
668.83,226.737
668.912,292.686
668.994,338.514
669.075,273.368
669.157,258.918
669.238,239.776
669.32,283.295
669.401,233.406
669.483,281.066
669.564,267.346
669.646,260.271
669.728,233.643
669.809,275.751
669.891,267.739
669.972,247.859
670.054,279.042
670.135,264.175
670.217,270.696
670.298,210.673
670.38,238.34
670.461,279.069
670.543,259.467
670.625,228.867
670.706,274.599
670.788,244.343
670.869,240.547
670.951,225.942
671.032,238.569
671.114,230.542
671.195,257.502
671.277,286.325
671.358,220.643
671.44,217.747
671.521,238.163
671.603,245.219
671.684,249.781
671.766,215.79
671.847,252.171
671.929,238.177
672.01,231.111
672.092,219.667
672.173,227.568
672.255,232.953
672.336,229.889
672.418,255.275
672.499,244.178
672.581,250.186
672.662,259.25
672.744,230.44
672.825,254.072
672.907,217.77
672.988,228.696
673.07,287.29
673.151,275.656
673.233,255.39
673.314,235.828
673.396,230.697
673.477,217.968
673.559,223.873
673.64,222.794
673.722,227.769
673.803,252.989
673.885,242.536
673.966,233.878
674.047,216.3
674.129,235.404
674.21,214.197
674.292,253.885
674.373,174.022
674.455,223.132
674.536,197.456
674.618,252.969
674.699,228.07
674.781,200.679
674.862,232.932
674.943,203.845
675.025,246.732
675.106,215.774
675.188,220.507
675.269,226.176
675.351,207.911
675.432,230.038
675.514,216.657
675.595,264.897
675.676,228.061
675.758,212.325
675.839,192.207
675.921,244.798
676.002,224.455
676.084,245.015
676.165,259.465
676.246,181.145
676.328,245.464
676.409,213.183
676.491,191.513
676.572,191.266
676.653,208.151
676.735,246.392
676.816,228.349
676.898,212.87
676.979,202.899
677.06,212.483
677.142,199.189
677.223,189.888
677.305,207.21
677.386,192.276
677.467,234.026
677.549,206.665
677.63,239.296
677.712,193.212
677.793,186.941
677.874,179.443
677.956,223.678
678.037,166.389
678.119,210.024
678.2,213.373
678.281,215.009
678.363,236.808
678.444,223.388
678.525,222.378
678.607,216.268
678.688,177.132
678.77,218.761
678.851,191.798
678.932,203.929
679.014,206.643
679.095,220.305
679.176,182.366
679.258,216.843
679.339,198.902
679.42,222.776
679.502,191.026
679.583,173.122
679.664,177.558
679.746,200.87
679.827,198.071
679.909,241.341
679.99,230.668
680.071,205.535
680.153,190.024
680.234,201.671
680.315,200.74
680.397,234.153
680.478,187.779
680.559,210.676
680.641,215.884
680.722,216.389
680.803,210.851
680.885,239.7
680.966,170.255
681.047,253.689
681.128,248.312
681.21,219.906
681.291,200.625
681.372,216.839
681.454,226.7
681.535,215.078
681.616,210.736
681.698,191.713
681.779,220.271
681.86,241.543
681.942,246.752
682.023,214.811
682.104,211.799
682.186,207.282
682.267,236.679
682.348,194.704
682.429,215.229
682.511,226.645
682.592,241.395
682.673,177.217
682.755,213.128
682.836,177.19
682.917,212.641
682.998,240.36
683.08,247.764
683.161,206.34
683.242,176.807
683.324,216.075
683.405,203.018
683.486,212.313
683.567,174.768
683.649,202.46
683.73,202.116
683.811,199.766
683.892,203.412
683.974,237.245
684.055,173.036
684.136,209.755
684.217,189.212
684.299,194.678
684.38,161.694
684.461,185.289
684.542,223.538
684.624,163.344
684.705,224.296
684.786,188.848
684.867,151.133
684.949,180.583
685.03,214.016
685.111,181.559
685.192,233.064
685.274,168.95
685.355,254.809
685.436,168.426
685.517,231.76
685.599,400.472
685.68,208.487
685.761,243.481
685.842,212.373
685.923,202.156
686.005,208.151
686.086,199.339
686.167,184.742
686.248,162.042
686.33,185.514
686.411,258.851
686.492,229.626
686.573,218.019
686.654,194.049
686.736,191.993
686.817,221.386
686.898,220.205
686.979,217.519
687.06,220.108
687.142,202.797
687.223,214.361
687.304,201.575
687.385,210.589
687.466,220.396
687.548,191.395
687.629,221.745
687.71,249.18
687.791,257.301
687.872,286.284
687.953,261.133
688.035,292.975
688.116,239.409
688.197,302.578
688.278,322.348
688.359,357.597
688.441,398.379
688.522,360.993
688.603,361.742
688.684,393.09
688.765,401.326
688.846,395.658
688.928,431.835
689.009,424.944
689.09,423.28
689.171,435.387
689.252,414.518
689.333,395.03
689.414,390.959
689.496,408.079
689.577,369.302
689.658,341.324
689.739,343.164
689.82,346.62
689.901,320.41
689.982,305.345
690.064,250.295
690.145,283.374
690.226,243.948
690.307,247.476
690.388,250.678
690.469,235.362
690.55,244.382
690.632,215.342
690.713,214.489
690.794,214.607
690.875,215.901
690.956,208.211
691.037,199.884
691.118,230.927
691.199,222.624
691.28,148.81
691.362,169.837
691.443,183.883
691.524,186.985
691.605,188.267
691.686,146.465
691.767,192.16
691.848,152.935
691.929,217.76
692.01,138.69
692.091,206.802
692.173,196.134
692.254,244.91
692.335,202.178
692.416,182.732
692.497,231.447
692.578,231.851
692.659,198.533
692.74,213.051
692.821,183.216
692.902,146.543
692.983,194.63
693.065,100.455
693.146,171.604
693.227,190.863
693.308,146.008
693.389,202.277
693.47,169.368
693.551,171.505
693.632,142.58
693.713,183.042
693.794,122.265
693.875,185.026
693.956,167.843
694.037,165.436
694.118,175.87
694.199,153.889
694.28,186.008
694.362,188.682
694.443,235.179
694.524,215.341
694.605,261.194
694.686,253.3
694.767,292.58
694.848,305.668
694.929,330.949
695.01,348.623
695.091,448.801
695.172,456.55
695.253,434.758
695.334,453.183
695.415,399.454
695.496,380.568
695.577,307.673
695.658,313.621
695.739,277.443
695.82,258.654
695.901,217.8
695.982,189.104
696.063,229.58
696.144,190.866
696.225,238.018
696.306,158.772
696.387,129.048
696.468,230.747
696.549,150.689
696.63,159.689
696.711,156.974
696.792,158.877
696.873,95.468
696.954,127.969
697.035,108.996
697.116,156.333
697.197,134.427
697.278,185.201
697.359,196.851
697.44,163.356
697.521,147.855
697.602,135.624
697.683,170.132
697.764,145.78
697.845,182.656
697.926,177.754
698.007,167.178
698.088,214.676
698.169,225.355
698.25,224.726
698.331,218.065
698.412,167.765
698.493,204.124
698.574,169.278
698.655,112.724
698.736,149.093
698.817,116.077
698.898,124.11
698.979,113.912
699.06,181.907
699.141,108.235
699.221,177.843
699.302,150.986
699.383,123.934
699.464,91.0309
699.545,159.151
699.626,121.167
699.707,102.315
699.788,109.368
699.869,95.3297
699.95,117.632
700.031,137.309
700.112,99.0827
700.193,127.739
700.274,135.282
700.355,96.7875
700.436,160.419
700.516,177.298
700.597,123.689
700.678,144.688
700.759,119.911
700.84,147.817
700.921,126.232
701.002,127.629
701.083,160.872
701.164,107.158
701.245,56.0456
701.326,117.973
701.407,122.242
701.487,163.026
701.568,122.644
701.649,138.583
701.73,119.319
701.811,176.833
701.892,138.317
701.973,128.774
702.054,123.349
702.135,146.544
702.215,121.434
702.296,157.612
702.377,146.591
702.458,110.495
702.539,123.442
702.62,99.9252
702.701,0.0
702.782,0.0
702.863,0.0
702.943,0.0
703.024,13.501
703.105,0.0
703.186,0.0
703.267,4.21676
703.348,130.862
703.429,60.4685
703.509,0.0
703.59,0.0
703.671,0.0
703.752,0.0
703.833,0.0
703.914,0.0
703.995,0.0
704.075,0.0
704.156,0.0
704.237,0.0
704.318,0.0
704.399,0.0
704.48,0.0
704.561,0.0
704.641,0.0
704.722,0.0
704.803,0.0
704.884,0.0
704.965,0.0
705.046,0.0
705.126,0.0
705.207,0.0
705.288,0.0
705.369,0.0
705.45,0.0
705.531,0.0
705.611,0.0
705.692,0.0
705.773,0.0
705.854,0.0
705.935,0.0
706.015,0.0
706.096,0.0
706.177,0.0
706.258,0.0
706.339,0.0
706.419,0.0
706.5,0.0
706.581,0.0
706.662,0.0
706.743,0.0
706.823,0.0
706.904,0.0
706.985,0.0
707.066,0.0
707.147,0.0
707.227,0.0
707.308,0.0
707.389,0.0
707.47,0.0
707.551,0.0
707.631,0.0
707.712,0.0
707.793,0.0
707.874,0.0
707.954,0.0
708.035,0.0
708.116,0.0
708.197,0.0
708.277,0.0
708.358,0.0
708.439,0.0
708.52,0.0
708.601,0.0
708.681,0.0
708.762,0.0
708.843,0.0
708.924,0.0
709.004,0.0
709.085,0.0
709.166,0.0
709.247,0.0
709.327,0.0
709.408,0.0
709.489,0.0
709.569,0.0
709.65,0.0
709.731,0.0
709.812,0.0
709.892,0.0
709.973,0.0
710.054,0.0
710.135,0.0
710.215,0.0
710.296,0.0
710.377,0.0
710.457,0.0
710.538,0.0
710.619,0.0
710.7,0.0
710.78,0.0
710.861,0.0
710.942,0.0
711.022,0.0
711.103,0.0
711.184,0.0
711.265,0.0
711.345,0.0
711.426,0.0
711.507,0.0
711.587,0.0
711.668,0.0
711.749,0.0
711.829,0.0
711.91,0.0
711.991,0.0
712.072,0.0
712.152,0.0
712.233,0.0
712.314,0.0
712.394,0.0
712.475,0.0
712.556,0.0
712.636,0.0
712.717,0.0
712.798,0.0
712.878,0.0
712.959,0.0
